Frequency (Hz),Magnitude (dB)
2.0164622657102247,14.980401207966285
2.0329906449373576,15.209417912902708
2.0495190241644905,15.358382282228701
2.0660474033916234,15.431763376514652
2.0825757826187568,15.441777046936975
2.0991041618458897,15.40215164510987
2.1156325410730226,15.32235854095356
2.1321609203001555,15.204655708071256
2.1486892995272884,15.045583684019274
2.1652176787544217,14.841673120000209
2.1817460579815546,14.596928291007714
2.1982744372086875,14.327891261364101
2.2148028164358204,14.061223912904389
2.2313311956629533,13.820681952328522
2.2478595748900867,13.607811382492347
2.2643879541172196,13.389406214500701
2.2809163333443525,13.101923508439533
2.2974447125714854,12.668149482599315
2.3139730917986183,12.013365860638764
2.3305014710257512,11.075712300723616
2.3470298502528846,9.819401956415339
2.3635582294800175,8.279407019359535
2.3800866087071504,6.69995013785384
2.3966149879342833,5.738875600558128
2.413143367161416,6.066911735252836
2.4296717463885495,7.361816065882634
2.4462001256156825,8.855512574795041
2.4627285048428154,10.15978647252502
2.4792568840699483,11.17902656833329
2.495785263297081,11.917080003100214
2.512313642524214,12.400350723965976
2.5288420217513474,12.655705481779888
2.5453704009784803,12.705144102926733
2.5618987802056132,12.564375809023943
2.578427159432746,12.241165622116226
2.594955538659879,11.732027846914296
2.6114839178870124,11.016815201775355
2.6280122971141453,10.050985394487801
2.644540676341278,8.754703438777193
2.661069055568411,6.997196877516341
2.677597434795544,4.5861286677382935
2.6941258140226774,1.4227520586349027
2.7106541932498103,-0.9480329785310682
2.727182572476943,1.0566553725823116
2.743710951704076,4.428887015254514
2.760239330931209,7.027699820029206
2.7767677101583423,8.82862754994349
2.7932960893854752,9.988910298931481
2.809824468612608,10.602924818726553
2.826352847839741,10.701107156803209
2.842881227066874,10.254078206849673
2.859409606294007,9.161069017844696
2.87593798552114,7.225742297909509
2.892466364748273,4.252903404261417
2.908994743975406,1.7763337899126876
2.925523123202539,4.402103657934646
2.942051502429672,8.335414461782655
2.958579881656805,11.228773803797662
2.975108260883938,13.197385246595278
2.991636640111071,14.460726743735181
3.008165019338204,15.158009542291659
3.024693398565337,15.377055466464833
3.0412217777924697,15.179293782269099
3.057750157019603,14.614883132161733
3.074278536246736,13.733277529835807
3.090806915473869,12.594479883613145
3.107335294701002,11.28879229830471
3.1238636739281347,9.975507403723775
3.140392053155268,8.928765077225412
3.156920432382401,8.486029104330473
3.173448811609534,8.793730162262001
3.1899771908366668,9.658708332150848
3.2065055700637997,10.77770205692836
3.223033949290933,11.952476989361344
3.239562328518066,13.094311787334977
3.256090707745199,14.164194911939884
3.2726190869723317,15.135518734334688
3.2891474661994646,15.983687607244788
3.305675845426598,16.688395906966427
3.322204224653731,17.23773770768321
3.338732603880864,17.629896398341124
3.3552609831079967,17.872225040422823
3.3717893623351296,17.978672574620425
3.3883177415622625,17.966345028808792
3.404846120789396,17.851782440369725
3.4213745000165288,17.647651699438377
3.4379028792436617,17.360761907311634
3.4544312584707946,16.99217684610072
3.4709596376979275,16.539582646948535
3.487488016925061,16.001308393012415
3.5040163961521937,15.380981560415988
3.5205447753793266,14.691848469292568
3.5370731546064595,13.959985663078474
3.5536015338335925,13.225587299678665
3.5701299130607254,12.541142524823794
3.5866582922878587,11.96500772636166
3.6031866715149916,11.549571321170987
3.6197150507421245,11.325829438672548
3.6362434299692574,11.289900953461496
3.6527718091963903,11.398190746873414
3.6693001884235237,11.573701286677869
3.6858285676506566,11.71933559299621
3.7023569468777895,11.73103126013715
3.7188853261049224,11.505988935341144
3.7354137053320553,10.946159131954275
3.7519420845591887,9.96327304492324
3.7684704637863216,8.506234727608252
3.7849988430134545,6.67723723475441
3.8015272222405874,5.036216990036352
3.8180556014677203,4.538213478531235
3.8345839806948536,5.051006586320392
3.8511123599219865,5.419709376537126
3.8676407391491194,4.823893282132021
3.8841691183762523,2.5590883018972663
3.9006974976033852,-3.1203432948946404
3.917225876830518,-6.309685124864281
3.9337542560576515,2.85701521161772
3.9502826352847844,7.443503091586566
3.9668110145119173,9.979043833834728
3.98333939373905,11.250311466168057
3.999867772966183,11.516175168559856
4.016396152193316,10.836739496013719
4.032924531420449,9.217198866197194
4.049452910647582,7.1021138430212885
4.065981289874715,6.838705755212914
4.0825096691018485,9.448271523456643
4.099038048328981,12.254534145911446
4.115566427556114,14.32484675748537
4.132094806783247,15.694307406024262
4.14862318601038,16.498758280078548
4.1651515652375135,16.852850583103535
4.181679944464646,16.851018979494185
4.198208323691779,16.579453050271702
4.214736702918912,16.124790110311235
4.231265082146045,15.57688697387779
4.2477934613731785,15.02379445776089
4.264321840600311,14.538808293594194
4.280850219827444,14.164152668159371
4.297378599054577,13.899986384581432
4.31390697828171,13.70527488860348
4.3304353575088435,13.509026742504176
4.346963736735976,13.223941496988827
4.363492115963109,12.754379565404525
4.380020495190242,11.993731650735398
4.396548874417375,10.806591401455886
4.413077253644508,8.981208620979992
4.429605632871641,6.090559317036501
4.446134012098774,0.9052685612934365
4.462662391325907,-13.722076678631483
4.47919077055304,-0.5956954696900343
4.495719149780173,5.716600690598525
4.512247529007306,9.163883792761062
4.528775908234439,11.390532965532074
4.545304287461572,12.904651313561073
4.561832666688705,13.935684618316602
4.5783610459158375,14.612794578373425
4.594889425142971,15.021984464509131
4.611417804370104,15.22943123175089
4.627946183597237,15.292607815053024
4.64447456282437,15.26573102397558
4.6610029420515025,15.201283854965201
4.677531321278636,15.14753906586764
4.694059700505769,15.142042890563356
4.710588079732902,15.202999077433855
4.727116458960035,15.323077899871446
4.743644838187167,15.470024751857046
4.760173217414301,15.59421737392558
4.776701596641434,15.6388579318942
4.793229975868567,15.548014134300157
4.8097583550957,15.27036685656576
4.826286734322832,14.758814674819469
4.842815113549966,13.966394801308839
4.859343492777099,12.837495700970914
4.8758718720042316,11.289829834798539
4.892400251231365,9.173566363267975
4.908928630458497,6.160662689333039
4.925457009685631,1.328362395643694
4.941985388912764,-10.236769518346719
4.9585137681398965,-4.791375685287196
4.97504214736703,2.684511013338084
4.991570526594162,6.2168861728211855
5.008098905821296,8.183618454198294
5.024627285048428,9.14628166918021
5.0411556642755615,9.277897348660797
5.057684043502695,8.607868207872793
5.074212422729827,7.133710154693093
5.090740801956961,5.144056022687553
5.107269181184093,4.211543310638547
5.1237975604112265,5.826002678898583
5.14032593963836,8.155474773485045
5.156854318865492,9.88910060558254
5.173382698092626,10.848742990254161
5.189911077319758,11.085314670906406
5.206439456546891,10.658945838779667
5.222967835774025,9.636207204795863
5.239496215001157,8.172584191865717
5.256024594228291,6.695737128670366
5.272552973455423,5.93398082898455
5.289081352682556,6.136316578405669
5.30560973190969,6.679547782182301
5.322138111136822,6.96258785005421
5.338666490363956,6.741373266684866
5.355194869591088,5.958229713395674
5.371723248818221,4.6473643740312
5.388251628045355,3.00904413913587
5.404780007272487,1.6676069765815982
5.4213083864996205,1.5281515759020559
5.437836765726753,2.473284337572807
5.454365144953886,3.5278224955648874
5.47089352418102,4.069648551961214
5.487421903408152,3.8090457444710433
5.5039502826352855,2.498928442847333
5.520478661862418,-0.007719176444111287
5.537007041089551,-1.4309393552355014
5.553535420316685,2.3359721375247413
5.570063799543817,6.55008256536381
5.5865921787709505,9.603660447785428
5.603120557998083,11.721498040146248
5.619648937225216,13.133891523293622
5.636177316452349,13.991111863914634
5.652705695679482,14.402439805922036
5.6692340749066155,14.467407315525438
5.685762454133748,14.297698915050512
5.702290833360881,14.025720372769218
5.718819212588014,13.785721746382544
5.735347591815147,13.664438868836033
5.75187597104228,13.66182464566878
5.768404350269413,13.711868589436303
5.784932729496546,13.745808426775504
5.801461108723679,13.742493975280503
5.817989487950812,13.744422422379348
5.834517867177945,13.841186466317968
5.851046246405078,14.120701274798177
5.867574625632211,14.609723189579999
5.884103004859344,15.255253746734548
5.900631384086477,15.962720855606221
5.91715976331361,16.64448867782533
5.933688142540743,17.24105436283857
5.950216521767876,17.71847574944243
5.966744900995009,18.057871088402614
5.983273280222142,18.245793986768874
5.999801659449275,18.267687702526242
6.016330038676408,18.10401770382946
6.032858417903541,17.728060510865543
6.049386797130674,17.10436117844371
6.065915176357807,16.18734497706995
6.082443555584939,14.92132743881758
6.098971934812073,13.250503755584688
6.115500314039206,11.179632391820867
6.132028693266339,9.036424841782392
6.148557072493472,7.980201511600871
6.165085451720604,8.914777771046305
6.181613830947738,10.735500567764262
6.198142210174871,12.411973530382161
6.214670589402004,13.698455786490133
6.231198968629137,14.612367145012364
6.247727347856269,15.213154839523638
6.264255727083403,15.551732225227248
6.280784106310536,15.661336720071475
6.2973124855376685,15.557772726533516
6.313840864764802,15.242590755995696
6.330369243991934,14.70765737677455
6.346897623219068,13.940284471355348
6.363426002446201,12.928712026967247
6.3799543816733335,11.669382089346566
6.396482760900467,10.180966483188579
6.413011140127599,8.536187968985281
6.429539519354733,6.921475384201404
6.446067898581866,5.670674295702326
6.4625962778089985,5.070672560811173
6.479124657036132,4.991111542625186
6.495653036263264,4.94141055802564
6.512181415490398,4.401193759686588
6.528709794717531,2.8423569092443928
6.5452381739446635,-0.4377866927551315
6.561766553171797,-2.9223701421086323
6.578294932398929,3.067932932349508
6.594823311626063,8.376727837942079
6.611351690853196,12.074665114143722
6.627880070080328,14.755368554643608
6.644408449307462,16.729629132373898
6.660936828534594,18.162705999018073
6.677465207761728,19.15180572067991
6.69399358698886,19.759680662520488
6.710521966215993,20.0307949540499
6.727050345443127,20.000475671332474
6.743578724670259,19.701477760618314
6.7601071038973926,19.17031846812259
6.776635483124525,18.454951684985943
6.793163862351658,17.624356412440346
6.809692241578792,16.777316959992994
6.826220620805924,16.0399056374117
6.8427490000330575,15.534796786435784
6.85927737926019,15.324211754084732
6.875805758487323,15.373355571595324
6.892334137714457,15.57621361916291
6.908862516941589,15.813450330073147
6.9253908961687225,15.990492296439227
6.941919275395855,16.046445871956312
6.958447654622988,15.949536585584934
6.974976033850122,15.690423728513007
6.991504413077254,15.275746845294872
7.0080327923043875,14.719541028548395
7.02456117153152,14.029216298066036
7.041089550758653,13.185210205842036
7.057617929985787,12.117039270132455
7.074146309212919,10.67503812417411
7.090674688440052,8.573011829846891
7.107203067667185,5.187403051942171
7.123731446894318,-1.4903242203896252
7.140259826121451,-7.279170202800284
7.156788205348584,3.4591441898299835
7.173316584575717,8.260457070108455
7.18984496380285,11.073967952014709
7.206373343029983,12.811353534533188
7.222901722257116,13.791622816782958
7.239430101484249,14.144981058144628
7.255958480711382,13.917743187751059
7.272486859938515,13.115649387322232
7.289015239165648,11.76325603100123
7.305543618392781,10.117368394090665
7.322071997619914,9.199761901204823
7.338600376847047,10.212948108062289
7.35512875607418,12.329221921143725
7.371657135301313,14.334734549257693
7.388185514528446,15.863797069275776
7.404713893755579,16.886602245734732
7.421242272982712,17.427047469668338
7.437770652209845,17.49528178942762
7.454299031436978,17.07282798722835
7.470827410664111,16.105377632594706
7.487355789891244,14.496147585598917
7.503884169118377,12.132983041427849
7.52041254834551,9.236544384841567
7.536940927572643,7.923601136892868
7.553469306799776,9.98442754149223
7.569997686026909,12.593397716907887
7.586526065254042,14.498656247955285
7.603054444481175,15.693910651367606
7.619582823708308,16.30265921040939
7.6361112029354405,16.4155198930229
7.652639582162574,16.0849879008449
7.669167961389707,15.331524584192973
7.68569634061684,14.143752753335976
7.702224719843973,12.469659395163823
7.7187530990711055,10.19459938528267
7.735281478298239,7.10600607319678
7.751809857525371,2.9903911503749967
7.768338236752505,-0.3416365050903465
7.784866615979638,1.8731414066767371
7.8013949952067705,5.107714208130563
7.817923374433904,7.275116012366621
7.834451753661036,8.54387999453381
7.85098013288817,9.100506722182573
7.867508512115303,9.024730329454155
7.8840368913424355,8.33175898046689
7.900565270569569,7.056187497103239
7.917093649796701,5.573362373532683
7.933622029023835,5.303248174067119
7.950150408250968,7.2648598562393785
7.9666787874781,9.985772866849631
7.983207166705234,12.38016717170048
7.999735545932366,14.259306029414251
8.0162639251595,15.665451857262461
8.032792304386632,16.665988325610822
8.049320683613766,17.321320766836195
8.065849062840899,17.688109540505245
8.082377442068031,17.828904621599598
8.098905821295164,17.820941239080156
8.115434200522298,17.75711381263516
8.13196257974943,17.729708912988983
8.148490958976563,17.796495613013462
8.165019338203697,17.95252372227371
8.18154771743083,18.13633529505529
8.198076096657962,18.2646347758744
8.214604475885096,18.264255034827027
8.231132855112229,18.0861127501667
8.247661234339361,17.707861632805137
8.264189613566494,17.137396800390817
8.280717992793628,16.426047018175648
8.29724637202076,15.691645109725052
8.313774751247893,15.124042316962523
8.330303130475027,14.906858492715475
8.34683150970216,15.062212733315928
8.363359888929292,15.410096707493658
8.379888268156426,15.704536033435035
8.396416647383559,15.748449625488263
8.412945026610691,15.403460509659869
8.429473405837824,14.552360366956565
8.446001785064958,13.051230941617625
8.46253016429209,10.66090542562048
8.479058543519223,6.9197101045819664
8.495586922746357,1.4284772039993576
8.51211530197349,1.2040588664348877
8.528643681200622,5.906080127610811
8.545172060427754,8.840801980180995
8.561700439654889,10.460887915820173
8.578228818882021,11.243622689388623
8.594757198109154,11.47980725909056
8.611285577336288,11.426840585645248
8.62781395656342,11.390124552120632
8.644342335790553,11.683279901403163
8.660870715017687,12.44000760276199
8.67739909424482,13.52263110927299
8.693927473471952,14.692581235204552
8.710455852699084,15.778515599885761
8.726984231926219,16.699452830170433
8.743512611153351,17.430172031852553
8.760040990380483,17.972130929857354
8.776569369607618,18.33845852989757
8.79309774883475,18.547522282374317
8.809626128061883,18.620427035095464
8.826154507289017,18.58009389527655
8.84268288651615,18.451014047010872
8.859211265743282,18.259475348961523
8.875739644970414,18.03416286144691
8.892268024197548,17.806595261668186
8.908796403424681,17.610184317101556
8.925324782651813,17.476612991514592
8.941853161878948,17.429650282844097
8.95838154110608,17.479077008725408
8.974909920333213,17.618516327387155
8.991438299560347,17.828515890742963
9.00796667878748,18.082334678749838
9.024495058014612,18.350741565873022
9.041023437241744,18.604283343271714
9.057551816468878,18.813931611786614
9.07408019569601,18.95166471851898
9.090608574923143,18.991767995062173
9.107136954150278,18.91275765216571
9.12366533337741,18.699574097214118
9.140193712604542,18.345956293653035
9.156722091831675,17.857296895901825
9.17325047105881,17.254456755565464
9.189778850285942,16.57864893935043
9.206307229513074,15.89590032651782
9.222835608740208,15.29592838465884
9.23936398796734,14.87632606389413
9.255892367194473,14.708053668952207
9.272420746421608,14.80012272571984
9.28894912564874,15.095481873340606
9.305477504875872,15.502801106753132
9.322005884103005,15.934350897469308
9.33853426333014,16.326281310337166
9.355062642557272,16.640957048247373
9.371591021784404,16.85956169518026
9.388119401011538,16.970602373581507
9.40464778023867,16.957374584903356
9.421176159465803,16.787380681903475
9.437704538692937,16.406727055760363
9.45423291792007,15.741479731664057
9.470761297147202,14.710805922902706
9.487289676374335,13.281463563430746
9.503818055601469,11.685079909994048
9.520346434828602,10.898741469424507
9.536874814055734,11.947953474838545
9.553403193282868,13.972267477266469
9.56993157251,15.83662109294552
9.586459951737133,17.18643232265523
9.602988330964266,17.98497041123995
9.6195167101914,18.256965120677606
9.636045089418532,18.028252433376924
9.652573468645665,17.321947508589727
9.669101847872799,16.1788987957171
9.685630227099931,14.711699579209245
9.702158606327064,13.202247319909349
9.718686985554198,12.119805547432989
9.73521536478133,11.750226906910868
9.751743744008463,11.828950923248236
9.768272123235596,11.919553180554288
9.78480050246273,11.82291237441638
9.801328881689862,11.607067410548453
9.817857260916995,11.520113321721858
9.834385640144129,11.804081479714327
9.850914019371261,12.456756328353425
9.867442398598394,13.25004540807657
9.883970777825528,13.952885865533066
9.90049915705266,14.43827341067194
9.917027536279793,14.663518806740187
9.933555915506926,14.629307742409283
9.95008429473406,14.352847441203123
9.966612673961192,13.852787619850318
9.983141053188325,13.139953351165541
9.999669432415459,12.211747810492328
10.016197811642591,11.05325558570511
10.032726190869724,9.658935458199906
10.049254570096856,8.12033428423433
10.06578294932399,6.864997003098758
10.082311328551123,6.774844610876331
10.098839707778255,8.13565566116095
10.11536808700539,10.100889657968901
10.131896466232522,11.971948459158646
10.148424845459655,13.521009819809784
10.164953224686789,14.714638858604099
10.181481603913921,15.567943427609555
10.198009983141054,16.10091629945764
10.214538362368186,16.32758766573823
10.23106674159532,16.254422805718374
10.247595120822453,15.881969542983773
10.264123500049585,15.209288994455068
10.28065187927672,14.243351395585522
10.297180258503852,13.017877441132333
10.313708637730985,11.624997770123787
10.330237016958119,10.242050580386747
10.346765396185251,9.078194848809398
10.363293775412384,8.184986578936392
10.379822154639516,7.325391626050951
10.39635053386665,6.072317847545007
10.412878913093783,3.8602987025601876
10.429407292320915,-0.46715188371485195
10.44593567154805,-14.028290306987481
10.462464050775182,-3.9397472566415304
10.478992430002315,3.448742908887218
10.495520809229449,7.184733655366178
10.512049188456581,9.452440231812934
10.528577567683714,10.839698893211228
10.545105946910846,11.58944594066621
10.56163432613798,11.82517816977821
10.578162705365113,11.627482058800783
10.594691084592245,11.08741507853454
10.61121946381938,10.381721910065377
10.627747843046512,9.864471751027716
10.644276222273644,9.98656733357957
10.660804601500777,10.862013281166053
10.677332980727911,12.127477922419443
10.693861359955044,13.381323290463882
10.710389739182176,14.416693854498089
10.72691811840931,15.167985806496558
10.743446497636443,15.636916334828728
10.759974876863575,15.861458810702441
10.77650325609071,15.911276390528617
10.793031635317842,15.88940404804527
10.809560014544974,15.917752072785007
10.826088393772107,16.089278006269208
10.842616772999241,16.410539794190015
10.859145152226374,16.79499537448859
10.875673531453506,17.115004667825076
10.89220191068064,17.253915802326357
10.908730289907773,17.12323848555395
10.925258669134905,16.654865288299735
10.94178704836204,15.784657717400524
10.958315427589172,14.432085479617708
