Frequency (Hz),Magnitude (dB)
2.0129675955977278,12.991639907297937
2.0421410390121872,14.712453962307064
2.071314482426647,15.80140046004358
2.100487925841107,16.377006060552194
2.129661369255567,16.505702181941924
2.158834812670027,16.22498600850999
2.1880082560844865,15.557772589422818
2.2171816994989464,14.524806829248869
2.2463551429134063,13.163938772802673
2.275528586327866,11.571661579385069
2.3047020297423257,9.984717259096588
2.3338754731567857,8.844826973135637
2.3630489165712456,8.576391341349677
2.3922223599857055,9.127587365925988
2.421395803400165,10.090519654579994
2.450569246814625,11.149374078166156
2.479742690229085,12.1701958866006
2.5089161336435444,13.112477347151174
2.5380895770580043,13.965728696510272
2.5672630204724642,14.725075180099074
2.596436463886924,15.385303379913307
2.625609907301384,15.94119653387277
2.6547833507158436,16.389178108731876
2.6839567941303035,16.72853638896956
2.7131302375447635,16.961799694011965
2.742303680959223,17.094326847792477
2.771477124373683,17.133351781985684
2.800650567788143,17.086765414140768
2.8298240112026027,16.961913016962768
2.8589974546170627,16.764664565922427
2.888170898031522,16.498983305530587
2.917344341445982,16.167158874233472
2.946517784860442,15.770770753550778
2.9756912282749015,15.312317162649654
3.0048646716893614,14.797327096587363
3.0340381151038214,14.236706631205301
3.0632115585182813,13.649028575160235
3.0923850019327412,13.062336987749568
3.1215584453472007,12.514642163206503
3.1507318887616607,12.051630019649952
3.1799053321761206,11.719777994700834
3.20907877559058,11.554390057061934
3.23825221900504,11.565829537080411
3.2674256624195,11.730925195370645
3.29659910583396,11.995073567983582
3.32577254924842,12.283626634275358
3.3549459926628793,12.515726015099574
3.3841194360773392,12.61468854125895
3.413292879491799,12.513539509350977
3.4424663229062586,12.158023908090207
3.4716397663207186,11.511976541569027
3.5008132097351785,10.573885262851467
3.5299866531496384,9.420581854656184
3.5591600965640984,8.287075513236688
3.588333539978558,7.584913705171679
3.617506983393018,7.601949260623744
3.6466804268074777,8.146035405308421
3.675853870221937,8.804112542834474
3.705027313636397,9.31552419180892
3.734200757050857,9.604744336193141
3.763374200465317,9.702905104594162
3.792547643879777,9.696856502517415
3.8217210872942364,9.702722190422595
3.8508945307086964,9.842707167040201
3.8800679741231563,10.215774563002043
3.909241417537616,10.86819441573355
3.9384148609520757,11.780563808180373
3.9675883043665356,12.881455126509495
3.9967617477809956,14.077418439420658
4.0259351911954555,15.279153134970077
4.055108634609915,16.413698387458066
4.0842820780243745,17.425396452861428
4.113455521438834,18.272102865031226
4.142628964853294,18.920840873775855
4.171802408267754,19.34440316884453
4.200975851682214,19.51913247459116
4.230149295096674,19.424017570315222
4.259322738511134,19.04198859370824
4.288496181925594,18.366244227784875
4.317669625340054,17.418877921885816
4.346843068754513,16.29612633297133
4.376016512168973,15.24525750934022
4.405189955583433,14.671474176630074
4.434363398997893,14.840396041432387
4.463536842412353,15.556024144768784
4.492710285826813,16.41616640722458
4.521883729241273,17.156109981571234
4.551057172655732,17.674608955376275
4.5802306160701916,17.956257100961032
4.6094040594846515,18.020330693288287
4.638577502899111,17.89798787452622
4.667750946313571,17.62252720059136
4.696924389728031,17.224233883156145
4.726097833142491,16.726422190177292
4.755271276556951,16.141894623989362
4.784444719971411,15.470588403346905
4.81361816338587,14.700067646659438
4.84279160680033,13.810737217524675
4.87196505021479,12.787806724271064
4.90113849362925,11.643125917499127
4.93031193704371,10.449768959103027
4.95948538045817,9.375643249829924
4.98865882387263,8.648325903502114
5.017832267287089,8.383169522427067
5.047005710701549,8.444925526960073
5.076179154116009,8.563633073362036
5.1053525975304686,8.51550110235879
5.1345260409449285,8.173600007924884
5.163699484359388,7.488350838514643
5.192872927773848,6.48122337605469
5.222046371188308,5.282322279965102
5.251219814602768,4.18777430430516
5.280393258017227,3.564462744011391
5.309566701431687,3.473423367911418
5.338740144846147,3.5475004830647987
5.367913588260607,3.347327315528932
5.397087031675067,2.5579968513198685
5.426260475089527,0.9307715205264054
5.455433918503987,-1.7478127279610547
5.484607361918446,-4.863042760797322
5.513780805332906,-4.495127723782255
5.542954248747366,-1.420293792807754
5.572127692161826,0.8671079836703564
5.601301135576286,1.9970303330143968
5.6304745789907455,2.0646592672009882
5.6596480224052055,1.026840565564722
5.688821465819665,-1.4664970242139637
5.717994909234125,-6.770721790121428
5.747168352648584,-23.423772285022288
5.776341796063044,-6.396200468994727
5.805515239477504,-0.6166143438050332
5.834688682891964,2.5027455904958806
5.863862126306424,4.410405523070848
5.893035569720884,5.567823645838651
5.922209013135344,6.1724360393930215
5.951382456549803,6.324288028179412
5.980555899964263,6.108064347283376
6.009729343378723,5.690787631778683
6.038902786793183,5.453530516130236
6.068076230207643,5.928472660826918
6.097249673622103,7.241967068766031
6.126423117036563,8.933285783433826
6.1555965604510225,10.53920369404329
6.1847700038654825,11.847730882942539
6.2139434472799415,12.801536818481265
6.2431168906944015,13.403734352749979
6.272290334108861,13.678131073774578
6.301463777523321,13.657029159039942
6.330637220937781,13.379929921966243
6.359810664352241,12.896767888043925
6.388984107766701,12.273020073122376
6.41815755118116,11.593705399871862
6.44733099459562,10.959899642678629
6.47650443801008,10.468497241788324
6.50567788142454,10.17477558841106
6.534851324839,10.061921245020589
6.56402476825346,10.048993050612596
6.59319821166792,10.033708313024622
6.62237165508238,9.939451532440303
6.65154509849684,9.753252209674432
6.680718541911299,9.561322758871114
6.709891985325759,9.563579972726314
6.7390654287402185,9.983458898451582
6.7682388721546785,10.863051412026701
6.797412315569138,12.004592521525073
6.826585758983598,13.151219326951402
6.855759202398058,14.128971547683397
6.884932645812517,14.854736965449181
6.914106089226977,15.301855348114874
6.943279532641437,15.476310422306433
6.972452976055897,15.40948721847232
7.001626419470357,15.162296151669569
7.030799862884817,14.832332717038897
7.059973306299277,14.54750092455692
7.089146749713737,14.425489671459445
7.118320193128197,14.510733093133119
7.147493636542656,14.751844367994414
7.176667079957116,15.049756695817134
7.205840523371576,15.321319236455286
7.235013966786036,15.527369732838315
7.2641874102004955,15.667732893544173
7.2933608536149555,15.762166988220542
7.322534297029415,15.829754105867092
7.351707740443874,15.875082848401142
7.380881183858334,15.886487888025243
7.410054627272794,15.844643825045118
7.439228070687254,15.733876942164649
7.468401514101714,15.549270505192801
7.497574957516174,15.297485121892482
7.526748400930634,14.993331521429143
7.555921844345094,14.656027209305766
7.585095287759554,14.308611992889741
7.614268731174013,13.980641244478914
7.643442174588473,13.709160231612703
7.672615618002933,13.530934156257224
7.701789061417393,13.465976601883087
7.730962504831853,13.505653412072158
7.760135948246313,13.620248890834258
7.7893093916607725,13.78273674143039
7.818482835075232,13.98937754126926
7.8476562784896915,14.260498245846714
7.876829721904151,14.618643020670314
7.906003165318611,15.058618546421012
7.935176608733071,15.534194289642542
7.964350052147531,15.971518809684742
7.993523495561991,16.293457817972282
8.02269693897645,16.435553721905602
8.051870382390911,16.349171845713975
8.08104382580537,15.997085391490948
8.11021726921983,15.346725991224996
8.13939071263429,14.363398262285719
8.168564156048749,13.003831033037985
8.19773759946321,11.21011043166471
8.226911042877669,8.906414782718503
8.25608448629213,6.014169694015258
8.285257929706589,2.5648276844472373
8.31443137312105,-0.8282767722232826
8.343604816535509,-2.623764122105921
8.37277825994997,-2.792834466151265
8.401951703364428,-2.562902636628759
8.431125146778887,-1.4526815114297378
8.460298590193348,1.2523836291694115
8.489472033607807,4.518112683399736
8.518645477022268,7.4315159733148
8.547818920436727,9.79268406230553
8.576992363851188,11.63663372078185
8.606165807265647,13.031889067031688
8.635339250680108,14.036655922494099
8.664512694094567,14.693657059123131
8.693686137509026,15.032400337161395
8.722859580923487,15.071932169455412
8.752033024337946,14.82243043453363
8.781206467752407,14.284835707613915
8.810379911166866,13.447424756337831
8.839553354581327,12.2775557305538
8.868726797995786,10.70622051420096
8.897900241410245,8.605680122610318
8.927073684824705,5.799832850619283
8.956247128239164,2.554062136291115
8.985420571653625,1.9876103256347553
9.014594015068084,5.224931982835122
9.043767458482545,8.430660745772634
9.072940901897004,10.800244214744719
9.102114345311463,12.464689228809895
9.131287788725924,13.562488413612094
9.160461232140383,14.179647023058115
9.189634675554844,14.367842580480888
9.218808118969303,14.161152859555363
9.247981562383764,13.59033469086529
9.277155005798223,12.700666618568079
9.306328449212684,11.579786979935346
9.335501892627143,10.393159789207655
9.364675336041602,9.386241619757348
9.393848779456063,8.772845820134158
9.423022222870522,8.569305976734258
9.452195666284982,8.626233587273202
9.481369109699441,8.827799968947062
9.510542553113902,9.19641069433585
9.539715996528361,9.838798876862763
9.568889439942822,10.807755896704265
9.598062883357281,12.019375652502543
9.62723632677174,13.310059175612043
9.656409770186201,14.532448817641042
9.68558321360066,15.591613214261146
9.714756657015121,16.43538073057874
9.74393010042958,17.035972396545436
9.77310354384404,17.37693934354472
9.8022769872585,17.445863357619842
9.831450430672959,17.230631519230908
9.86062387408742,16.71789680042729
9.889797317501879,15.893882011084393
9.91897076091634,14.750257784399366
9.948144204330799,13.303522870852959
9.97731764774526,11.647344308734038
10.006491091159718,10.053847322452663
10.035664534574178,9.001711690044944
10.064837977988638,8.787229436390474
10.094011421403097,9.112063479590454
10.123184864817558,9.470629651470265
10.152358308232017,9.556965831403218
10.181531751646478,9.24565522928393
10.210705195060937,8.48745614893904
10.239878638475398,7.254194247676503
10.269052081889857,5.526890677914668
10.298225525304316,3.3449066562454357
10.327398968718777,1.0440719507299998
10.356572412133236,-0.26713553854677907
10.385745855547697,0.3668170239260257
10.414919298962156,1.9936442143934883
10.444092742376617,3.6093691693144345
10.473266185791076,4.9868433888834645
10.502439629205536,6.18267151757496
10.531613072619995,7.279515086057369
10.560786516034455,8.305083707320902
10.589959959448915,9.223799145321788
10.619133402863374,9.966197780388859
10.648306846277835,10.46158549236042
10.677480289692294,10.654143315826165
10.706653733106755,10.50426352281847
10.735827176521214,9.98371113572271
10.765000619935673,9.070696734412735
10.794174063350134,7.750679834310274
10.823347506764593,6.04338064248994
10.852520950179054,4.141327748248733
10.881694393593513,2.826090196396141
10.910867837007974,3.354980993435116
10.940041280422433,5.422262947259272
10.969214723836892,7.7502242641517345
10.998388167251353,9.776899360894122
11.027561610665812,11.387205790302627
11.056735054080272,12.57557393511764
11.085908497494732,13.350254372922702
11.115081940909192,13.712501267805886
11.144255384323651,13.65203256653366
11.173428827738112,13.146450158326177
11.202602271152571,12.166788988188394
11.23177571456703,10.709123339299113
11.260949157981491,8.927017334617759
11.29012260139595,7.489970939526129
11.319296044810411,7.503979924063076
11.34846948822487,8.807673437920116
11.37764293163933,10.269838019478904
11.40681637505379,11.332575821370847
11.43598981846825,11.888215191008825
11.46516326188271,11.97151158923604
11.494336705297169,11.687167636112093
11.52351014871163,11.24817760051811
11.552683592126089,11.018735292297592
11.58185703554055,11.356196536154261
11.611030478955009,12.256562690716148
11.64020392236947,13.382135744734294
11.669377365783928,14.421649055160891
11.698550809198387,15.223988953749835
11.727724252612848,15.746229153716074
11.756897696027307,15.994788516903057
11.786071139441768,15.994677136725151
11.815244582856227,15.77474095765134
11.844418026270688,15.35889688246334
11.873591469685147,14.760441857443244
11.902764913099606,13.981995238297278
11.931938356514067,13.028025735144855
11.961111799928526,11.941653071918736
11.990285243342987,10.876890490465737
12.019458686757446,10.160302424157916
12.048632130171907,10.13202650173529
12.077805573586366,10.756864399265782
12.106979017000826,11.653215453343659
12.136152460415286,12.4893309045606
12.165325903829745,13.124040549113861
12.194499347244205,13.549857641949759
12.223672790658664,13.829917658209286
12.252846234073125,14.053014569607809
12.282019677487584,14.288218098432278
12.311193120902045,14.546307266456877
12.340366564316504,14.775398368511148
12.369540007730965,14.892449649835795
12.398713451145424,14.81946994496322
12.427886894559883,14.502025959992814
12.457060337974344,13.911670529793746
12.486233781388803,13.04087401494325
12.515407224803264,11.893519685865414
12.544580668217723,10.468052256691394
12.573754111632184,8.73095554221009
12.602927555046643,6.5955992299054165
12.632100998461102,4.006912672200008
12.661274441875563,1.6591290800300371
12.690447885290022,2.105882761083409
12.719621328704482,4.965153068967691
12.748794772118941,7.740239783524845
12.777968215533402,9.876601675755108
12.807141658947861,11.445864705745123
12.83631510236232,12.57062328035034
12.865488545776781,13.350531311915537
12.89466198919124,13.859450371268496
12.923835432605701,14.147247796598116
12.95300887602016,14.240632662877271
12.98218231943462,14.145575195258191
13.01135576284908,13.853469544058516
13.04052920626354,13.351409907690105
13.069702649678,12.636334704659436
13.098876093092459,11.733046042160765
13.12804953650692,10.712256571535594
13.157222979921379,9.68865216804923
13.18639642333584,8.761476338250464
13.215569866750299,7.90594066042155
13.24474331016476,6.922575428331168
13.273916753579218,5.489263743244088
13.30309019699368,3.2061447023856466
13.332263640408138,-0.30253261322957653
13.361437083822597,-3.1826062954484073
13.390610527237058,-0.30261297052716585
13.419783970651517,3.1714872518984887
13.448957414065978,5.233870113528583
13.478130857480437,6.093557529042858
13.507304300894898,5.897922340427618
13.536477744309357,4.614499151550052
13.565651187723816,1.9721082005450103
13.594824631138277,-2.862288520931189
13.623998074552736,-11.89427536646516
13.653171517967197,-7.757864765900557
13.682344961381656,-2.8940646157544014
13.711518404796116,-0.7728474658808833
13.740691848210576,0.7438320135914294
13.769865291625035,2.907812558988537
13.799038735039495,5.588448661556587
13.828212178453954,8.07002478017259
13.857385621868415,10.03281143968515
13.886559065282874,11.461642570402297
13.915732508697335,12.459066801233408
13.944905952111794,13.189522320116524
13.974079395526255,13.86160465617148
14.003252838940714,14.673298698409196
14.032426282355173,15.71693626556593
14.061599725769634,16.94527319312848
14.090773169184093,18.24879030917351
14.119946612598554,19.54588481198646
14.149120056013013,20.814160483828456
14.178293499427474,22.08061303134523
14.207466942841933,23.39667679406137
14.236640386256393,24.805119845563723
14.265813829670853,26.30832594734294
14.294987273085312,27.858211795045634
14.324160716499772,29.37505842151613
14.353334159914231,30.776590908572533
14.382507603328692,31.996606030082265
14.411681046743151,32.98940891076561
14.440854490157612,33.726520958997355
14.470027933572071,34.19165491360825
14.49920137698653,34.376682167080766
14.528374820400991,34.27928074509133
14.55754826381545,33.902278071548
14.586721707229911,33.254701753821095
14.61589515064437,32.3547670454968
14.64506859405883,31.23516254868306
14.67424203747329,29.950572613332383
14.703415480887749,28.585432143606102
14.73258892430221,27.255486253905694
14.761762367716669,26.092258541542268
14.79093581113113,25.20541456651845
14.820109254545589,24.640801578062472
14.84928269796005,24.365974873724348
14.878456141374508,24.291608620084283
14.90762958478897,24.30738839416387
14.936803028203428,24.310919182040436
14.965976471617887,24.22278547364311
14.995149915032348,23.99081169942171
15.024323358446807,23.590041613166257
15.053496801861268,23.02473100155652
15.082670245275727,22.336691558582103
15.111843688690188,21.619090830302788
15.141017132104647,21.0195821595854
15.170190575519108,20.695712251212292
15.199364018933567,20.715269831909584
15.228537462348026,20.998405458618947
15.257710905762487,21.380231777441473
15.286884349176946,21.70715198708696
15.316057792591407,21.875179181298567
15.345231236005866,21.821696200887516
15.374404679420326,21.506457897870852
15.403578122834785,20.896181553211186
15.432751566249244,19.95304095097096
15.461925009663705,18.62313992325928
15.491098453078164,16.818474164046545
15.520271896492625,14.378161257060057
15.549445339907084,10.966644285947641
15.578618783321545,5.778679629387529
15.607792226736004,-1.091602923363208
15.636965670150463,3.9130330619643976
15.666139113564924,8.868765321019652
15.695312556979383,11.898609748067027
15.724486000393844,13.954118622353802
15.753659443808303,15.420519385210397
15.782832887222764,16.463185831793858
15.812006330637223,17.157947247440898
15.841179774051684,17.543509509502083
15.870353217466143,17.64717096165981
15.899526660880602,17.501706180423767
15.928700104295062,17.162575437202943
15.957873547709521,16.73027421191991
15.987046991123982,16.37026447943389
16.016220434538443,16.291771637809592
16.0453938779529,16.640079158835327
16.07456732136736,17.379515912416498
16.103740764781822,18.32780995499369
16.13291420819628,19.289087701250377
16.16208765161074,20.12596704619785
16.1912610950252,20.757850921936253
16.22043453843966,21.138711927407382
16.24960798185412,21.23953964593676
16.27878142526858,21.03795825386093
16.30795486868304,20.512455239843604
16.337128312097498,19.639793927830148
16.36630175551196,18.397524054428633
16.39547519892642,16.78210733507498
16.42464864234088,14.877907168066544
16.453822085755338,13.046513750704221
16.4829955291698,12.073793597161298
16.51216897258426,12.401760183454616
16.54134241599872,13.391183499756195
16.570515859413177,14.328224678583128
16.599689302827638,14.937633031219615
16.6288627462421,15.174335027736227
16.658036189656556,15.069484734524554
16.687209633071017,14.68468820612404
16.716383076485478,14.108370433331611
16.74555651989994,13.46446766247798
16.774729963314396,12.915819632829326
16.803903406728857,12.638800797915566
16.833076850143318,12.753505281675611
16.862250293557775,13.251321334553346
16.891423736972236,14.00079415764556
16.920597180386697,14.825998422076974
16.949770623801157,15.573203304345302
16.978944067215615,16.129373001072793
17.008117510630075,16.411341968814924
17.037290954044536,16.346224294387035
17.066464397458994,15.848496863652343
17.095637840873454,14.7865612180446
17.124811284287915,12.910714205615182
17.153984727702376,9.623831728340544
17.183158171116833,2.700219595585595
17.212331614531294,-5.5992729775834595
17.241505057945755,7.8178237891963125
17.270678501360216,12.834967704290408
17.299851944774673,15.792900471207458
17.329025388189134,17.7099777486626
17.358198831603595,18.94543366635203
17.387372275018052,19.66632230085541
17.416545718432513,19.96247544296418
17.445719161846974,19.886314062758434
17.474892605261434,19.469415922147213
17.50406604867589,18.729904024899145
17.533239492090352,17.675088621229364
17.562412935504813,16.300310260359417
17.59158637891927,14.582725706178811
17.62075982233373,12.465871044708646
17.649933265748192,9.824381113728277
17.679106709162653,6.379219706458731
17.70828015257711,1.4883433636071233
