Frequency (Hz),Magnitude (dB)
2.0164622657102247,10.037726351039868
2.0329906449373576,8.61788835741015
2.0495190241644905,7.088862838935832
2.0660474033916234,5.550066720943503
2.0825757826187568,4.217808556820732
2.0991041618458897,3.5370140101471366
2.1156325410730226,4.031808323592871
2.1321609203001555,5.640137687602559
2.1486892995272884,7.723535589941683
2.1652176787544217,9.771323214822814
2.1817460579815546,11.564450836114927
2.1982744372086875,13.037109620396341
2.2148028164358204,14.181133395909162
2.2313311956629533,15.007632087683884
2.2478595748900867,15.533466119879174
2.2643879541172196,15.776620786189017
2.2809163333443525,15.754560707029102
2.2974447125714854,15.483451981753937
2.3139730917986183,14.977545618412991
2.3305014710257512,14.248618977730043
2.3470298502528846,13.305691097786243
2.3635582294800175,12.155385197096605
2.3800866087071504,10.8033202239925
2.3966149879342833,9.256815353913016
2.413143367161416,7.529080006237225
2.4296717463885495,5.644956150442475
2.4462001256156825,3.647912490714653
2.4627285048428154,1.6070189362703802
2.4792568840699483,-0.3765040071933293
2.495785263297081,-2.1469121561431184
2.512313642524214,-3.3919262013009934
2.5288420217513474,-3.489940705446525
2.5453704009784803,-1.9587285229233407
2.5618987802056132,0.6936624980465387
2.578427159432746,3.623685731450185
2.594955538659879,6.383227793063021
2.6114839178870124,8.814499588007482
2.6280122971141453,10.868305575337336
2.644540676341278,12.528153887468353
2.661069055568411,13.784461875602954
2.677597434795544,14.624902164832893
2.6941258140226774,15.029018020466943
2.7106541932498103,14.962707139159201
2.727182572476943,14.369687455709155
2.743710951704076,13.155686941660175
2.760239330931209,11.156588404618365
2.7767677101583423,8.077993796149084
2.7932960893854752,3.5452779551069655
2.809824468612608,0.005875767380666983
2.826352847839741,3.0212948064547085
2.842881227066874,6.0469374059672445
2.859409606294007,7.706003594286528
2.87593798552114,8.512122186436175
2.892466364748273,8.960529963613006
2.908994743975406,9.483104385055254
2.925523123202539,10.273770323740836
2.942051502429672,11.18956055531019
2.958579881656805,11.958614816842896
2.975108260883938,12.377751022928358
2.991636640111071,12.330107526317263
3.008165019338204,11.734160241738651
3.024693398565337,10.491860835868309
3.0412217777924697,8.425975610977241
3.057750157019603,5.134119665280965
3.074278536246736,-0.6234856642451803
3.090806915473869,-17.883797962225994
3.107335294701002,-3.344391633972777
3.1238636739281347,2.2364435363269837
3.140392053155268,4.8965248828643855
3.156920432382401,6.344649531995764
3.173448811609534,7.1434152047748825
3.1899771908366668,7.589123485365076
3.2065055700637997,7.883226332322804
3.223033949290933,8.169951920997958
3.239562328518066,8.534999537435647
3.256090707745199,9.00337659455779
3.2726190869723317,9.553073430694248
3.2891474661994646,10.138318160483657
3.305675845426598,10.70849594550066
3.322204224653731,11.21770590510028
3.338732603880864,11.62817768570445
3.3552609831079967,11.911652440796113
3.3717893623351296,12.050535897221097
3.3883177415622625,12.038700792164242
3.404846120789396,11.880739281304976
3.4213745000165288,11.588009096042668
3.4379028792436617,11.170645210475406
3.4544312584707946,10.628080423987505
3.4709596376979275,9.94617914793325
3.487488016925061,9.11419199634687
3.5040163961521937,8.178411532163718
3.5205447753793266,7.339660662327297
3.5370731546064595,6.990647172723902
3.5536015338335925,7.405228254257271
3.5701299130607254,8.348710879456348
3.5866582922878587,9.358740587927787
3.6031866715149916,10.147346115284574
3.6197150507421245,10.63499406001741
3.6362434299692574,10.876651476448124
3.6527718091963903,11.013531604649312
3.6693001884235237,11.211379684837425
3.6858285676506566,11.552282578594586
3.7023569468777895,11.96278776060564
3.7188853261049224,12.268413576371824
3.7354137053320553,12.295390166283461
3.7519420845591887,11.919950139492242
3.7684704637863216,11.084243091453484
3.7849988430134545,9.862208351066313
3.8015272222405874,8.684420328201512
3.8180556014677203,8.476389959568714
3.8345839806948536,9.59522924410458
3.8511123599219865,11.20641051779989
3.8676407391491194,12.610537422825729
3.8841691183762523,13.598877283221126
3.9006974976033852,14.16777065815538
3.917225876830518,14.37359204903846
3.9337542560576515,14.298586961916053
3.9502826352847844,14.051927980088255
3.9668110145119173,13.770308482836738
3.98333939373905,13.589677518797263
3.999867772966183,13.581010536505252
4.016396152193316,13.702324313340693
4.032924531420449,13.825180399453153
4.049452910647582,13.802948922443326
4.065981289874715,13.51595002515194
4.0825096691018485,12.888907068498243
4.099038048328981,11.923901437530473
4.115566427556114,10.817887299855268
4.132094806783247,10.160639496183578
4.14862318601038,10.6319931505032
4.1651515652375135,12.00371994404222
4.181679944464646,13.504433498677958
4.198208323691779,14.694999861074061
4.214736702918912,15.444333618149209
4.231265082146045,15.732466259687893
4.2477934613731785,15.564356660840035
4.264321840600311,14.942493971338067
4.280850219827444,13.857848548430223
4.297378599054577,12.286204377661317
4.31390697828171,10.196462453721459
4.3304353575088435,7.643649298005187
4.346963736735976,5.300815604395269
4.363492115963109,5.225812282078843
4.380020495190242,7.58824400828208
4.396548874417375,10.322915626680176
4.413077253644508,12.68720086720807
4.429605632871641,14.630451476498166
4.446134012098774,16.205096968705192
4.462662391325907,17.460533662742495
4.47919077055304,18.43383090211266
4.495719149780173,19.152382779606626
4.512247529007306,19.636515446273858
4.528775908234439,19.901437686620064
4.545304287461572,19.959144447933102
4.561832666688705,19.820674715111704
4.5783610459158375,19.49884484257825
4.594889425142971,19.011332774573514
4.611417804370104,18.383627342916803
4.627946183597237,17.650697569204166
4.64447456282437,16.85538238135298
4.6610029420515025,16.04139877303176
4.677531321278636,15.241251821977428
4.694059700505769,14.464224679412382
4.710588079732902,13.692256071265035
4.727116458960035,12.886887306047592
4.743644838187167,12.002870298334143
4.760173217414301,11.002566090101158
4.776701596641434,9.870627397654356
4.793229975868567,8.634268648227366
4.8097583550957,7.394392477371092
4.826286734322832,6.35554600399429
4.842815113549966,5.796921263376987
4.859343492777099,5.9270699762982995
4.8758718720042316,6.741364600517845
4.892400251231365,8.058709224617717
4.908928630458497,9.645005581577799
4.925457009685631,11.289744327768162
4.941985388912764,12.836453061084631
4.9585137681398965,14.185848146199284
4.97504214736703,15.283297334272435
4.991570526594162,16.102908408775228
5.008098905821296,16.634971584406895
5.024627285048428,16.877812424089957
5.0411556642755615,16.83290953662204
5.057684043502695,16.501973436888736
5.074212422729827,15.885145473741026
5.090740801956961,14.980141413509303
5.107269181184093,13.783355708033644
5.1237975604112265,12.296950158887839
5.14032593963836,10.554172495265199
5.156854318865492,8.692585576349899
5.173382698092626,7.094850800350535
5.189911077319758,6.3667115613051575
5.206439456546891,6.707979474707626
5.222967835774025,7.616109452627486
5.239496215001157,8.571808617178638
5.256024594228291,9.350874297702598
5.272552973455423,9.904554233384147
5.289081352682556,10.24907682955508
5.30560973190969,10.418912638652944
5.322138111136822,10.447710222466213
5.338666490363956,10.358150974173357
5.355194869591088,10.156671064022609
5.371723248818221,9.834786791473569
5.388251628045355,9.379099657761238
5.404780007272487,8.790635951748458
5.4213083864996205,8.113013989060253
5.437836765726753,7.461180898658006
5.454365144953886,7.013280914984167
5.47089352418102,6.909453748239764
5.487421903408152,7.116904294890771
5.5039502826352855,7.445267782706809
5.520478661862418,7.68788372513384
5.537007041089551,7.707336010275395
5.553535420316685,7.436905647760835
5.570063799543817,6.85764200904758
5.5865921787709505,5.981276661733958
5.603120557998083,4.841549501710322
5.619648937225216,3.4922358883325333
5.636177316452349,2.023499603391384
5.652705695679482,0.6374474903917583
5.6692340749066155,-0.21320374610605056
5.685762454133748,0.011470155436587842
5.702290833360881,1.2132534144986786
5.718819212588014,2.721632163997439
5.735347591815147,4.0322112227214255
5.75187597104228,4.930164660216634
5.768404350269413,5.3384836884868125
5.784932729496546,5.2377910000835035
5.801461108723679,4.689366153460967
5.817989487950812,4.012868448343222
5.834517867177945,4.0469447971875585
5.851046246405078,5.4756603491029505
5.867574625632211,7.685574183754557
5.884103004859344,9.827286699028363
5.900631384086477,11.573044558951802
5.91715976331361,12.868778709029964
5.933688142540743,13.73566874822798
5.950216521767876,14.208890540841475
5.966744900995009,14.325235803346299
5.983273280222142,14.125010466425863
5.999801659449275,13.658244420668868
6.016330038676408,12.990427923250738
6.032858417903541,12.200760696457767
6.049386797130674,11.363972938173358
6.065915176357807,10.518045520415725
6.082443555584939,9.647801439837906
6.098971934812073,8.728681595688755
6.115500314039206,7.860526514527284
6.132028693266339,7.4534655118321815
6.148557072493472,8.063252042294812
6.165085451720604,9.61307174555105
6.181613830947738,11.450682260321228
6.198142210174871,13.103252643719014
6.214670589402004,14.38939725418023
6.231198968629137,15.257807924798266
6.247727347856269,15.692386631869347
6.264255727083403,15.676035606136423
6.280784106310536,15.176098495552846
6.2973124855376685,14.136173266248587
6.313840864764802,12.475956933282701
6.330369243991934,10.14787145025368
6.346897623219068,7.536895766934655
6.363426002446201,6.5350562954020255
6.3799543816733335,8.158983267707418
6.396482760900467,10.245789285860132
6.413011140127599,11.76819630465249
6.429539519354733,12.675792982586866
6.446067898581866,13.087255531503368
6.4625962778089985,13.138843232585721
6.479124657036132,12.984806747263363
6.495653036263264,12.81569124878595
6.512181415490398,12.846460737886524
6.528709794717531,13.235405626936904
6.5452381739446635,13.980944247287912
6.561766553171797,14.929280511702505
6.578294932398929,15.886412162954766
6.594823311626063,16.700420271595085
6.611351690853196,17.27471024676487
6.627880070080328,17.55207958343913
6.644408449307462,17.498465460983038
6.660936828534594,17.09403114029338
6.677465207761728,16.33333187161724
6.69399358698886,15.239978386431021
6.710521966215993,13.910500535266827
6.727050345443127,12.600091115866602
6.743578724670259,11.758180124316425
6.7601071038973926,11.725375450438712
6.776635483124525,12.324578690299937
6.793163862351658,13.117935161153898
6.809692241578792,13.814039487364166
6.826220620805924,14.29813475017246
6.8427490000330575,14.540442020025083
6.85927737926019,14.539794811084281
6.875805758487323,14.301973810725116
6.892334137714457,13.8334403506268
6.908862516941589,13.140052981662542
6.9253908961687225,12.2271496874298
6.941919275395855,11.103378471859799
6.958447654622988,9.801445994674214
6.974976033850122,8.449688581816439
6.991504413077254,7.421100878850691
7.0080327923043875,7.318451229157111
7.02456117153152,8.309120623209413
7.041089550758653,9.824963161816163
7.057617929985787,11.298997903246907
7.074146309212919,12.47369012334019
7.090674688440052,13.263581800711881
7.107203067667185,13.637483559788684
7.123731446894318,13.567414227287175
7.140259826121451,13.002925420392415
7.156788205348584,11.8435552959218
7.173316584575717,9.879946603919459
7.18984496380285,6.610827746086886
7.206373343029983,0.3564427457954478
7.222901722257116,-10.996321332113602
7.239430101484249,2.584149962672284
7.255958480711382,7.728000948510159
7.272486859938515,10.655798658565987
7.289015239165648,12.555012507106024
7.305543618392781,13.863185815596015
7.322071997619914,14.810741615008832
7.338600376847047,15.54179595915806
7.35512875607418,16.142694432273338
7.371657135301313,16.646457572757544
7.388185514528446,17.03983497909862
7.404713893755579,17.28015020533207
7.421242272982712,17.315304164516284
7.437770652209845,17.09967519424255
7.454299031436978,16.606980574896888
7.470827410664111,15.84936378434277
7.487355789891244,14.91622053217408
7.503884169118377,14.029975625685562
7.52041254834551,13.5265508529212
7.536940927572643,13.606111401591894
7.553469306799776,14.100833057868332
7.569997686026909,14.671617517292539
7.586526065254042,15.080076954330666
7.603054444481175,15.22911429948071
7.619582823708308,15.111420066318804
7.6361112029354405,14.773345058816322
7.652639582162574,14.302976124203939
7.669167961389707,13.827594651383235
7.68569634061684,13.501476838372625
7.702224719843973,13.464562186760151
7.7187530990711055,13.777350750763237
7.735281478298239,14.384927870584818
7.751809857525371,15.151784123498809
7.768338236752505,15.929666210122376
7.784866615979638,16.600858561126643
7.8013949952067705,17.08735139457534
7.817923374433904,17.34392201826981
7.834451753661036,17.349188362059245
7.85098013288817,17.099774647113243
7.867508512115303,16.608217524305555
7.8840368913424355,15.903378630719827
7.900565270569569,15.030312202082019
7.917093649796701,14.044019534271799
7.933622029023835,12.991379943963572
7.950150408250968,11.88439701770529
7.9666787874781,10.684162025734889
7.983207166705234,9.321282790398925
7.999735545932366,7.778970799399932
8.0162639251595,6.296804466534085
8.032792304386632,5.610304607305948
8.049320683613766,6.303256355364591
8.065849062840899,7.7671570490993975
8.082377442068031,9.160402047151813
8.098905821295164,10.117470542503435
8.115434200522298,10.526084463567024
8.13196257974943,10.329473302638688
8.148490958976563,9.46309059610348
8.165019338203697,7.9096655850278665
8.18154771743083,6.198319397934045
8.198076096657962,6.492893734089158
8.214604475885096,9.326045078910932
8.231132855112229,12.384022255090565
8.247661234339361,14.840432153086578
8.264189613566494,16.685966036778844
8.280717992793628,18.01343087282046
8.29724637202076,18.897403671530025
8.313774751247893,19.386935880352073
8.330303130475027,19.5116033777915
8.34683150970216,19.28702108993774
8.363359888929292,18.719195543387674
8.379888268156426,17.809774966673878
8.396416647383559,16.567177326620588
8.412945026610691,15.035831937247742
8.429473405837824,13.367417095415721
8.446001785064958,11.929530536403155
8.46253016429209,11.22667265036525
8.479058543519223,11.3726984023259
8.495586922746357,11.926040981315449
8.51211530197349,12.431132701889569
8.528643681200622,12.660813429173354
8.545172060427754,12.527695399115505
8.561700439654889,11.989749068673838
8.578228818882021,11.002497386796804
8.594757198109154,9.490416950304388
8.611285577336288,7.315880774333408
8.62781395656342,4.2476827803004396
8.644342335790553,0.2291395392138354
8.660870715017687,-1.632499153327382
8.67739909424482,1.6700906551503638
8.693927473471952,5.0394161500263115
8.710455852699084,7.483591875512047
8.726984231926219,9.276941723831788
8.743512611153351,10.6357203018969
8.760040990380483,11.680795410166493
8.776569369607618,12.469695679340136
8.79309774883475,13.019426337228834
8.809626128061883,13.32388290195922
8.826154507289017,13.369961122253082
8.84268288651615,13.155708037539707
8.859211265743282,12.715664372341493
8.875739644970414,12.156200021942581
8.892268024197548,11.677122328467139
8.908796403424681,11.499040691037198
8.925324782651813,11.674757723248572
8.941853161878948,12.01865500880324
8.95838154110608,12.273589478509104
8.974909920333213,12.268423622352852
8.991438299560347,11.959929450070819
9.00796667878748,11.45030998893899
9.024495058014612,11.012156290076373
9.041023437241744,10.984224669674143
9.057551816468878,11.444740096635568
9.07408019569601,12.104028526939652
9.090608574923143,12.60588451047024
9.107136954150278,12.719111018422735
9.12366533337741,12.30696799736214
9.140193712604542,11.246693280650032
9.156722091831675,9.34590431722625
9.17325047105881,6.193280904496615
9.189778850285942,0.7444661311177128
9.206307229513074,-4.972743277461699
9.222835608740208,1.807477026827754
9.23936398796734,6.211342430347912
9.255892367194473,8.713833031473717
9.272420746421608,10.199764040418131
9.28894912564874,11.058939474190751
9.305477504875872,11.516811829787974
9.322005884103005,11.742766888030477
9.33853426333014,11.881682725404513
9.355062642557272,12.04392261364956
9.371591021784404,12.276327905905651
9.388119401011538,12.550630314626543
9.40464778023867,12.788596718377608
9.421176159465803,12.90192758685599
9.437704538692937,12.818471690379846
9.45423291792007,12.490951547406759
9.470761297147202,11.899412504115428
9.487289676374335,11.058336969557567
9.503818055601469,10.034143586152203
9.520346434828602,8.9652735260501
9.536874814055734,8.042193250319267
9.553403193282868,7.391455338500626
9.56993157251,6.94193470367419
9.586459951737133,6.4541968420839435
9.602988330964266,5.652066827677564
9.6195167101914,4.269048571806443
9.636045089418532,1.9874669688522641
9.652573468645665,-1.571355007249264
9.669101847872799,-4.631862733216591
9.685630227099931,-1.0814490878090135
9.702158606327064,3.294694807784817
9.718686985554198,6.4365528417457964
9.73521536478133,8.709804076306677
9.751743744008463,10.391274337945388
9.768272123235596,11.634383870390227
9.78480050246273,12.52823975561679
9.801328881689862,13.13054338082802
9.817857260916995,13.484727801027937
9.834385640144129,13.628519639086951
9.850914019371261,13.597032670709773
9.867442398598394,13.42226243755089
9.883970777825528,13.131615881472758
9.90049915705266,12.749795955396872
9.917027536279793,12.308906612403076
9.933555915506926,11.868213656432061
9.95008429473406,11.533471095993091
9.966612673961192,11.44453601264722
9.983141053188325,11.700761094374425
9.999669432415459,12.275598538719752
10.016197811642591,13.03088819789682
10.032726190869724,13.811828589633697
10.049254570096856,14.511337070199628
10.06578294932399,15.076741304240109
10.082311328551123,15.493125136376506
10.098839707778255,15.766935593833997
10.11536808700539,15.915323267000767
10.131896466232522,15.960460201961714
10.148424845459655,15.9276917033643
10.164953224686789,15.846923106086113
10.181481603913921,15.756270478066876
10.198009983141054,15.705043976597706
10.214538362368186,15.750237696208483
10.23106674159532,15.94093295237974
10.247595120822453,16.29456116542009
10.264123500049585,16.782795701957237
10.28065187927672,17.341436703109288
10.297180258503852,17.89592207535381
10.313708637730985,18.38290403588594
10.330237016958119,18.759043725833873
10.346765396185251,19.000250529570536
10.363293775412384,19.097082693685323
10.379822154639516,19.049640350930645
10.39635053386665,18.863089950239157
10.412878913093783,18.544080945159408
10.429407292320915,18.098235548261773
10.44593567154805,17.529008729628252
10.462464050775182,16.83819391391286
10.478992430002315,16.02814494969521
10.495520809229449,15.105547907637128
10.512049188456581,14.086433551210595
10.528577567683714,13.001956341677193
10.545105946910846,11.903881141104332
10.56163432613798,10.867308767795922
10.578162705365113,9.98633604655594
10.594691084592245,9.358477087909627
10.61121946381938,9.05924290448603
10.627747843046512,9.117765965795083
10.644276222273644,9.507636975074083
10.660804601500777,10.157612516715107
10.677332980727911,10.97369575329269
10.693861359955044,11.860104065201607
10.710389739182176,12.732227041425322
10.72691811840931,13.521614321038275
10.743446497636443,14.176061130984296
10.759974876863575,14.657609483383073
10.77650325609071,14.940121496786883
10.793031635317842,15.007229591107826
10.809560014544974,14.851086976833027
10.826088393772107,14.472309215387785
10.842616772999241,13.881760965719305
10.859145152226374,13.105411671330254
10.875673531453506,12.194085160846885
10.89220191068064,11.238737495971694
10.908730289907773,10.383146673853291
10.925258669134905,9.804772396980544
10.94178704836204,9.632814455646514
10.958315427589172,9.856993265009699
10.974843806816304,10.344885517986226
