Frequency (Hz),Magnitude (dB)
2.0164622657102247,20.094674028337383
2.0329906449373576,20.39851212880778
2.0495190241644905,20.521827276213777
2.0660474033916234,20.484737907509025
2.0825757826187568,20.313956014622562
2.0991041618458897,20.040012432398285
2.1156325410730226,19.69404558509127
2.1321609203001555,19.303988055772923
2.1486892995272884,18.89088134915521
2.1652176787544217,18.46684933244783
2.1817460579815546,18.03621700574919
2.1982744372086875,17.60011366772244
2.2148028164358204,17.16331110787329
2.2313311956629533,16.740759224486446
2.2478595748900867,16.360200562690103
2.2643879541172196,16.056506427487985
2.2809163333443525,15.855581506002927
2.2974447125714854,15.753821642270543
2.3139730917986183,15.707221428885614
2.3305014710257512,15.638684754255962
2.3470298502528846,15.455791515936195
2.3635582294800175,15.064823878414785
2.3800866087071504,14.374938540714602
2.3966149879342833,13.296736110466874
2.413143367161416,11.752008726311963
2.4296717463885495,9.761972513476072
2.4462001256156825,7.855497539804696
2.4627285048428154,7.586073278212292
2.4792568840699483,9.332679063625749
2.495785263297081,11.501006948368072
2.512313642524214,13.292633904668445
2.5288420217513474,14.606743159524898
2.5453704009784803,15.494399907811292
2.5618987802056132,16.013507528309393
2.578427159432746,16.204354746622695
2.594955538659879,16.088448680899372
2.6114839178870124,15.670861306986119
2.6280122971141453,14.943153837825346
2.644540676341278,13.89019212789228
2.661069055568411,12.517659157728787
2.677597434795544,10.961818961145628
2.6941258140226774,9.796349947785039
2.7106541932498103,10.073438781503485
2.727182572476943,11.857964941573176
2.743710951704076,14.094055658600803
2.760239330931209,16.14273388862285
2.7767677101583423,17.84033284269269
2.7932960893854752,19.176944270164885
2.809824468612608,20.17411138473189
2.826352847839741,20.85460210728825
2.842881227066874,21.236864787882396
2.859409606294007,21.33521047295507
2.87593798552114,21.16118490680446
2.892466364748273,20.725244371333382
2.908994743975406,20.038727321255596
2.925523123202539,19.11626014679278
2.942051502429672,17.97860446318968
2.958579881656805,16.655565124207094
2.975108260883938,15.187863336399499
2.991636640111071,13.62593461626727
3.008165019338204,12.022962903556715
3.024693398565337,10.420033892619383
3.0412217777924697,8.82409316640551
3.057750157019603,7.186016388963967
3.074278536246736,5.401826419758327
3.090806915473869,3.4190166207998547
3.107335294701002,1.7604348143978974
3.1238636739281347,2.204016311807577
3.140392053155268,4.889928094636501
3.156920432382401,7.889486535397419
3.173448811609534,10.451956071214028
3.1899771908366668,12.531020173362663
3.2065055700637997,14.20262910827648
3.223033949290933,15.540479226731383
3.239562328518066,16.599124464840678
3.256090707745199,17.416099622165106
3.2726190869723317,18.018167319506084
3.2891474661994646,18.429482404242016
3.305675845426598,18.680827762754305
3.322204224653731,18.81797493084894
3.338732603880864,18.904564380023206
3.3552609831079967,19.01222704339122
3.3717893623351296,19.194877921007148
3.3883177415622625,19.46067954221426
3.404846120789396,19.76658546303149
3.4213745000165288,20.041386728495112
3.4379028792436617,20.215869919626435
3.4544312584707946,20.240468083056605
3.4709596376979275,20.088959158483085
3.487488016925061,19.755292285862676
3.5040163961521937,19.24886207675185
3.5205447753793266,18.589926834812807
3.5370731546064595,17.804806490688343
3.5536015338335925,16.91996278986257
3.5701299130607254,15.95454473378695
3.5866582922878587,14.912028529963584
3.6031866715149916,13.772443877371243
3.6197150507421245,12.486397890454805
3.6362434299692574,10.970351933613841
3.6527718091963903,9.100572299987128
3.6693001884235237,6.706482947940716
3.6858285676506566,3.6141964275536624
3.7023569468777895,0.2155448407649617
3.7188853261049224,-0.5254258094560711
3.7354137053320553,2.032281727292879
3.7519420845591887,4.627063876349766
3.7684704637863216,6.620270460073635
3.7849988430134545,8.238436429352513
3.8015272222405874,9.71727209317482
3.8180556014677203,11.170299626503947
3.8345839806948536,12.582838348797301
3.8511123599219865,13.871420258958302
3.8676407391491194,14.94779016941382
3.8841691183762523,15.746275099367654
3.9006974976033852,16.222416973297182
3.917225876830518,16.342083509963132
3.9337542560576515,16.070096599730668
3.9502826352847844,15.359147400243137
3.9668110145119173,14.135872512111888
3.98333939373905,12.277542813558018
3.999867772966183,9.567005793116639
4.016396152193316,5.630332237202246
4.032924531420449,0.5423726250211087
4.049452910647582,0.08907647386461236
4.065981289874715,3.5293147044599067
4.0825096691018485,5.600278286489284
4.099038048328981,6.310981835999274
4.115566427556114,5.925864655945897
4.132094806783247,4.5586518100083415
4.14862318601038,2.4570830724369803
4.1651515652375135,1.0252001552367895
4.181679944464646,2.3227282815505355
4.198208323691779,4.777022694590915
4.214736702918912,6.776590583114592
4.231265082146045,8.12098290986833
4.2477934613731785,8.9379532652306
4.264321840600311,9.390416953006326
4.280850219827444,9.63980017419325
4.297378599054577,9.828398355400017
4.31390697828171,10.043740111919824
4.3304353575088435,10.290182573257221
4.346963736735976,10.5020910534139
4.363492115963109,10.587247024410429
4.380020495190242,10.461926304706298
4.396548874417375,10.063620388515861
4.413077253644508,9.354341731838357
4.429605632871641,8.337971324433774
4.446134012098774,7.131017058784709
4.462662391325907,6.128713853890815
4.47919077055304,6.031213001569665
4.495719149780173,7.103327892921564
4.512247529007306,8.76046504071446
4.528775908234439,10.415137378679177
4.545304287461572,11.829452472116603
4.561832666688705,12.949840923954795
4.5783610459158375,13.77931802110615
4.594889425142971,14.330140782600818
4.611417804370104,14.608783392827288
4.627946183597237,14.610635206474177
4.64447456282437,14.317020643653365
4.6610029420515025,13.693277909371584
4.677531321278636,12.692882553137784
4.694059700505769,11.294518777371623
4.710588079732902,9.685870333120462
4.727116458960035,8.789886679270882
4.743644838187167,9.897900546115139
4.760173217414301,12.320406983439778
4.776701596641434,14.755174013115484
4.793229975868567,16.780927959898907
4.8097583550957,18.365864301066406
4.826286734322832,19.554488372381527
4.842815113549966,20.394177819273914
4.859343492777099,20.923755795641444
4.8758718720042316,21.174286473760354
4.892400251231365,21.171458061224165
4.908928630458497,20.93745349878123
4.925457009685631,20.491911276244345
4.941985388912764,19.851805927302294
4.9585137681398965,19.030026963792757
4.97504214736703,18.03243258789117
4.991570526594162,16.85329889653373
5.008098905821296,15.469272798018672
5.024627285048428,13.831836370975024
5.0411556642755615,11.857824904067202
5.057684043502695,9.419883906898136
5.074212422729827,6.3724558057383724
5.090740801956961,2.9382394285798292
5.107269181184093,1.4858296160604905
5.1237975604112265,3.701340059376863
5.14032593963836,6.461334106091673
5.156854318865492,8.654918477516693
5.173382698092626,10.350180915729727
5.189911077319758,11.701494681138634
5.206439456546891,12.813547266653915
5.222967835774025,13.743104181232628
5.239496215001157,14.513331409751904
5.256024594228291,15.12753065415001
5.272552973455423,15.580222006539266
5.289081352682556,15.865116529000682
5.30560973190969,15.98083679352029
5.322138111136822,15.936015012960382
5.338666490363956,15.75519822212527
5.355194869591088,15.485374859101073
5.371723248818221,15.198891575030625
5.388251628045355,14.98278238533802
5.404780007272487,14.906248959571382
5.4213083864996205,14.980259711555497
5.437836765726753,15.145729868761979
5.454365144953886,15.302861955585652
5.47089352418102,15.350860922496569
5.487421903408152,15.209626181734821
5.5039502826352855,14.824300513859612
5.520478661862418,14.167817780764826
5.537007041089551,13.259479713039827
5.553535420316685,12.223377564355625
5.570063799543817,11.38866648798604
5.5865921787709505,11.247514996016847
5.603120557998083,11.98424543684484
5.619648937225216,13.22752768103925
5.636177316452349,14.533833398955249
5.652705695679482,15.681718889551703
5.6692340749066155,16.60890275767397
5.685762454133748,17.318281357268038
5.702290833360881,17.83162016034013
5.718819212588014,18.17163275358775
5.735347591815147,18.35647938723278
5.75187597104228,18.400075527969552
5.768404350269413,18.315260843187847
5.784932729496546,18.117645137161272
5.801461108723679,17.827918152399892
5.817989487950812,17.470544468283826
5.834517867177945,17.067849272889937
5.851046246405078,16.631144850475593
5.867574625632211,16.153578415690436
5.884103004859344,15.60941645003729
5.900631384086477,14.960151494595662
5.91715976331361,14.163214247237072
5.933688142540743,13.178719719496847
5.950216521767876,11.97285859915652
5.966744900995009,10.52033553588462
5.983273280222142,8.812798669691514
5.999801659449275,6.889416039665703
6.016330038676408,4.918208438614691
6.032858417903541,3.304690760910135
6.049386797130674,2.5218324507090455
6.065915176357807,2.5140087303827734
6.082443555584939,2.7331103061702464
6.098971934812073,2.7629757768572345
6.115500314039206,2.5465037693822765
6.132028693266339,2.4400401227330257
6.148557072493472,3.1090392025137943
6.165085451720604,4.73790852106839
6.181613830947738,6.74004659137334
6.198142210174871,8.586223746642531
6.214670589402004,10.087921778190957
6.231198968629137,11.238164431526961
6.247727347856269,12.09795827032999
6.264255727083403,12.752237640752684
6.280784106310536,13.28761978564286
6.2973124855376685,13.772574019885548
6.313840864764802,14.24308700484119
6.330369243991934,14.7037661946819
6.346897623219068,15.143020160709224
6.363426002446201,15.547835549908662
6.3799543816733335,15.906151885485635
6.396482760900467,16.197799966670026
6.413011140127599,16.38438233644935
6.429539519354733,16.40743026754263
6.446067898581866,16.19566533090348
6.4625962778089985,15.676710240447278
6.479124657036132,14.793934726963094
6.495653036263264,13.54803811763136
6.512181415490398,12.118945368403498
6.528709794717531,11.079597757076762
6.5452381739446635,11.150679599553284
6.561766553171797,12.162493149648379
6.578294932398929,13.329668062692392
6.594823311626063,14.190675729642566
6.611351690853196,14.610897165942555
6.627880070080328,14.573928174585916
6.644408449307462,14.086587968595909
6.660936828534594,13.145319143928681
6.677465207761728,11.72060168027279
6.69399358698886,9.748918693968164
6.710521966215993,7.163811723758361
6.727050345443127,4.196936620295983
6.743578724670259,2.5471732685531547
6.7601071038973926,3.9146260893547313
6.776635483124525,6.157476340208731
6.793163862351658,7.9175040788268625
6.809692241578792,9.08933758665121
6.826220620805924,9.790239023205547
6.8427490000330575,10.143053771291664
6.85927737926019,10.251592806633615
6.875805758487323,10.196623880406229
6.892334137714457,10.031235043717384
6.908862516941589,9.780157756557665
6.9253908961687225,9.449139143046459
6.941919275395855,9.046101325216018
6.958447654622988,8.615118010756301
6.974976033850122,8.281871698095442
6.991504413077254,8.271849744636924
7.0080327923043875,8.794232196917829
7.02456117153152,9.819877485416871
7.041089550758653,11.07862988974107
7.057617929985787,12.28386163224739
7.074146309212919,13.256517368174238
7.090674688440052,13.911896055403295
7.107203067667185,14.219508693178003
7.123731446894318,14.179007171898315
7.140259826121451,13.812801623693778
7.156788205348584,13.170590487727583
7.173316584575717,12.343083947532278
7.18984496380285,11.48050306548253
7.206373343029983,10.79982469452814
7.222901722257116,10.54405849914711
7.239430101484249,10.86876798279679
7.255958480711382,11.735269435158314
7.272486859938515,12.943991590867217
7.289015239165648,14.267515534720518
7.305543618392781,15.538748701023799
7.322071997619914,16.662392473774837
7.338600376847047,17.59386873979766
7.35512875607418,18.316519116952207
7.371657135301313,18.825277581429823
7.388185514528446,19.116508073898647
7.404713893755579,19.182378571177058
7.421242272982712,19.008402011268718
7.437770652209845,18.572989922377293
7.454299031436978,17.848044013557804
7.470827410664111,16.800098132877043
7.487355789891244,15.392737087232206
7.503884169118377,13.594035027835314
7.52041254834551,11.400679724679632
7.536940927572643,8.90707381869559
7.553469306799776,6.438276183576882
7.569997686026909,4.526203961432156
7.586526065254042,3.2864503457914185
7.603054444481175,2.09023997324687
7.619582823708308,0.3258197058638225
7.6361112029354405,-1.216644319222209
7.652639582162574,0.92546297940893
7.669167961389707,5.148408617863401
7.68569634061684,8.801931987189901
7.702224719843973,11.680403856418238
7.7187530990711055,13.953487051220854
7.735281478298239,15.755144049233788
7.751809857525371,17.170164830187158
7.768338236752505,18.252319216866304
7.784866615979638,19.038311167178218
7.8013949952067705,19.556701245999456
7.817923374433904,19.83343218216759
7.834451753661036,19.894958611632617
7.85098013288817,19.769317008750328
7.867508512115303,19.485218967915404
7.8840368913424355,19.069722697022755
7.900565270569569,18.546321990608902
7.917093649796701,17.936659898541635
7.933622029023835,17.26885609180888
7.950150408250968,16.591684434584252
7.9666787874781,15.984798904727795
7.983207166705234,15.543520116759659
7.999735545932366,15.324440733132594
8.0162639251595,15.289133169957797
8.032792304386632,15.310415922310254
8.049320683613766,15.231094571447342
8.065849062840899,14.90783459112808
8.082377442068031,14.213226058806931
8.098905821295164,13.007623825139287
8.115434200522298,11.081919196733661
8.13196257974943,8.024961564561794
8.148490958976563,2.863768887332751
8.165019338203697,-2.6467224384491743
8.18154771743083,3.8711977634616215
8.198076096657962,8.549203273079305
8.214604475885096,11.364914811468928
8.231132855112229,13.167719078038797
8.247661234339361,14.314357452913267
8.264189613566494,14.97398752014497
8.280717992793628,15.23046663382109
8.29724637202076,15.119883509803776
8.313774751247893,14.646374134356051
8.330303130475027,13.790560787752991
8.34683150970216,12.519905483351273
8.363359888929292,10.822600130346983
8.379888268156426,8.840761334298804
8.396416647383559,7.239269577911589
8.412945026610691,7.159239585322547
8.429473405837824,8.460625199000967
8.446001785064958,9.985120567215617
8.46253016429209,11.165018958817758
8.479058543519223,11.889648892144788
8.495586922746357,12.173195967744254
8.51211530197349,12.052150871755396
8.528643681200622,11.574224680803171
8.545172060427754,10.82394833702775
8.561700439654889,9.974045293985904
8.578228818882021,9.318938514863392
8.594757198109154,9.151393774952108
8.611285577336288,9.489468906547927
8.62781395656342,10.071170112580866
8.644342335790553,10.635887269915965
8.660870715017687,11.066993415260416
8.67739909424482,11.36201211692657
8.693927473471952,11.563931558312511
8.710455852699084,11.700217674099115
8.726984231926219,11.746627390291078
8.743512611153351,11.629295655165892
8.760040990380483,11.253001960340207
8.776569369607618,10.529762616789487
8.79309774883475,9.402090280355333
8.809626128061883,7.890627516448461
8.826154507289017,6.244560114214516
8.84268288651615,5.20634613572331
8.859211265743282,5.616493278482927
8.875739644970414,7.172536949235252
8.892268024197548,9.047858604152212
8.908796403424681,10.8452299761251
8.925324782651813,12.450884100857708
8.941853161878948,13.8236391612094
8.95838154110608,14.935834810762465
8.974909920333213,15.767831415829932
8.991438299560347,16.309436803203134
9.00796667878748,16.559052282754454
9.024495058014612,16.52128354593777
9.041023437241744,16.204189236116026
9.057551816468878,15.616180134339226
9.07408019569601,14.761865944678206
9.090608574923143,13.636439270282217
9.107136954150278,12.2207740675135
9.12366533337741,10.488873919802487
9.140193712604542,8.472998730550053
9.156722091831675,6.5216015829556
9.17325047105881,5.679178382381384
9.189778850285942,6.594981042214959
9.206307229513074,8.235935216333178
9.222835608740208,9.6605977764291
9.23936398796734,10.60407542228674
9.255892367194473,11.071714815805558
9.272420746421608,11.168621465523074
9.28894912564874,11.081786081165287
9.305477504875872,11.060418569257603
9.322005884103005,11.288589450727482
9.33853426333014,11.725596177997113
9.355062642557272,12.147223962977254
9.371591021784404,12.320793488932633
9.388119401011538,12.087882967200734
9.40464778023867,11.350451186504543
9.421176159465803,10.03834351984116
9.437704538692937,8.091986129236785
9.45423291792007,5.482435729239402
9.470761297147202,2.3694438698894063
9.487289676374335,-0.2972500686617002
9.503818055601469,-0.6842122790953391
9.520346434828602,0.8858850921574447
9.536874814055734,2.8610215588124692
9.553403193282868,4.648794512150119
9.56993157251,6.084810640878757
9.586459951737133,7.131141547383076
9.602988330964266,7.8470721325443185
9.6195167101914,8.388675118889616
9.636045089418532,8.966857814304605
9.652573468645665,9.724642796857895
9.669101847872799,10.627274611972148
9.685630227099931,11.515156145860427
9.702158606327064,12.239228047991485
9.718686985554198,12.726922891971101
9.73521536478133,12.979470716516367
9.751743744008463,13.049824353459725
9.768272123235596,13.01618313675715
9.78480050246273,12.948871930991855
9.801328881689862,12.880670071984156
9.817857260916995,12.804685662203896
9.834385640144129,12.706855746382422
9.850914019371261,12.607746766956538
9.867442398598394,12.576865103911254
9.883970777825528,12.69243487258684
9.90049915705266,12.963020343935279
9.917027536279793,13.291185055414738
9.933555915506926,13.522530288163658
9.95008429473406,13.517779820054642
9.966612673961192,13.194749722056894
9.983141053188325,12.563284069223094
9.999669432415459,11.804924904612793
10.016197811642591,11.365174941093727
10.032726190869724,11.715863074996914
10.049254570096856,12.755248954024779
10.06578294932399,13.94984437398309
10.082311328551123,14.910204209890544
10.098839707778255,15.477927976184482
10.11536808700539,15.605481013345518
10.131896466232522,15.279017727687192
10.148424845459655,14.488181200078408
10.164953224686789,13.221031031478807
10.181481603913921,11.49006892996077
10.198009983141054,9.452221521886768
10.214538362368186,7.737393622337619
10.23106674159532,7.4245927218709165
10.247595120822453,8.472564282299114
10.264123500049585,9.80288309193312
10.28065187927672,10.825884979604666
10.297180258503852,11.406004609650665
10.313708637730985,11.545100860258826
10.330237016958119,11.274292168961836
10.346765396185251,10.636683341589086
10.363293775412384,9.700672025918573
10.379822154639516,8.586664717353596
10.39635053386665,7.482922187911729
10.412878913093783,6.590638381089969
10.429407292320915,5.979136140105579
10.44593567154805,5.5143653081203805
10.462464050775182,4.982563194888071
10.478992430002315,4.26892306659351
10.495520809229449,3.532571908634374
10.512049188456581,3.3952565573129867
10.528577567683714,4.516503029028648
10.545105946910846,6.56413871070177
10.56163432613798,8.76365441850728
10.578162705365113,10.727936841396675
10.594691084592245,12.365539143217145
10.61121946381938,13.684850760261005
10.627747843046512,14.715111372463525
10.644276222273644,15.481733333672484
10.660804601500777,15.998399266774864
10.677332980727911,16.26408236792748
10.693861359955044,16.26164193425283
10.710389739182176,15.956562529542179
10.72691811840931,15.29435210703204
10.743446497636443,14.194949219743433
10.759974876863575,12.544921322488205
10.77650325609071,10.211154525809134
10.793031635317842,7.27738188333261
10.809560014544974,5.362069248211206
10.826088393772107,6.864108938581809
10.842616772999241,9.426828095171926
10.859145152226374,11.352683673458145
10.875673531453506,12.514309372211018
10.89220191068064,13.005931950858333
10.908730289907773,12.89265759986237
10.925258669134905,12.193874542471823
10.94178704836204,10.897038685588317
10.958315427589172,9.00968085458971
10.974843806816304,6.794538592661965
